"Time (s)","X (rad/s)","Y (rad/s)","Z (rad/s)"
2.827375021E-3,8.665908575E-1,-1.320717812E0,1.384336352E-1
1.289137499E-2,7.498298883E-1,-1.338567853E0,-7.912478596E-2
2.295437502E-2,6.382424235E-1,-1.244807601E0,-3.549368382E-1
3.301837499E-2,5.834479332E-1,-1.117796659E0,-5.886095166E-1
4.308237502E-2,5.701932907E-1,-1.043773651E0,-7.067381144E-1
5.314537499E-2,5.989676714E-1,-1.028985143E0,-7.209937572E-1
6.320937502E-2,6.747525334E-1,-1.062341094E0,-7.362322807E-1
7.327237498E-2,7.646421790E-1,-1.064030409E0,-8.158967495E-1
8.333637501E-2,8.013515472E-1,-1.000006080E0,-8.481582403E-1
9.340037499E-2,7.871614099E-1,-9.771434069E-1,-6.744306087E-1
1.034633750E-1,7.414821386E-1,-1.109836221E0,-4.221777916E-1
1.135273750E-1,6.516201496E-1,-1.302692771E0,-9.426064789E-2
1.235903750E-1,5.492149591E-1,-1.445367932E0,1.962340474E-1
1.336543750E-1,4.415159523E-1,-1.584416866E0,3.591135144E-1
1.437183750E-1,3.742765784E-1,-1.668003440E0,5.386450291E-1
1.537813750E-1,3.129940629E-1,-1.578056216E0,8.049302697E-1
1.638453750E-1,2.027366757E-1,-1.441008091E0,9.679832458E-1
1.739083750E-1,6.619826704E-2,-1.173224926E0,9.989433289E-1
1.839723750E-1,-4.752562940E-2,-7.046734095E-1,9.619687796E-1
1.940353750E-1,-1.361347437E-1,-2.453390658E-1,8.480913043E-1
2.040993750E-1,-1.905441433E-1,1.463363320E-1,6.929526329E-1
2.141633750E-1,-1.856932044E-1,4.855220914E-1,4.836023450E-1
2.242263750E-1,-1.395042241E-1,7.652524710E-1,2.662076354E-1
2.342903750E-1,-1.238850504E-1,8.735659122E-1,2.679898143E-1
2.443533750E-1,-1.201478392E-1,8.779617548E-1,3.587580621E-1
2.544173750E-1,-1.065617502E-1,8.383713365E-1,4.160045683E-1
2.644813750E-1,-7.524438202E-2,8.021033406E-1,4.486982226E-1
2.745443750E-1,-5.311164260E-2,6.998952627E-1,4.790598452E-1
2.846083750E-1,-5.858345330E-2,6.532996297E-1,5.778303146E-1
2.946713750E-1,-9.621817619E-2,6.358585954E-1,8.134180903E-1
3.047353750E-1,-1.681507528E-1,6.533180475E-1,1.122891545E0
3.147993750E-1,-2.602449656E-1,6.609070301E-1,1.448480248E0
3.248623750E-1,-3.325069249E-1,6.756640077E-1,1.731126547E0
3.349263750E-1,-3.592482507E-1,7.397643924E-1,1.838129520E0
3.449893750E-1,-3.465019763E-1,7.351565957E-1,1.810880065E0
3.550533750E-1,-2.967277765E-1,6.526257992E-1,1.665601611E0
3.651173750E-1,-2.537034154E-1,4.922141731E-1,1.382266879E0
3.751803750E-1,-2.742697001E-1,1.591075957E-1,1.029602885E0
3.852443750E-1,-3.846614361E-1,-1.289152540E-2,7.414724827E-1
3.953073750E-1,-5.585536361E-1,5.647769198E-2,5.484937429E-1
4.053713750E-1,-6.816907525E-1,3.615744114E-1,4.025417864E-1
4.154343750E-1,-6.803437471E-1,8.817443848E-1,2.845019698E-1
4.254983750E-1,-6.197583675E-1,1.417103529E0,1.576125175E-1
4.355623750E-1,-6.149838567E-1,1.815720439E0,4.656722024E-2
4.456253750E-1,-7.706437707E-1,2.068404436E0,1.732806489E-2
4.556893750E-1,-9.857310653E-1,2.180786610E0,6.906795502E-2
4.657523750E-1,-1.094385028E0,2.232352972E0,1.681932509E-1
4.758163750E-1,-1.063025475E0,2.380702496E0,1.832105517E-1
4.858803750E-1,-1.000668287E0,2.781308174E0,2.379953116E-2
4.959433750E-1,-8.055738807E-1,3.047861576E0,-2.050650716E-1
5.060073750E-1,-5.247583985E-1,2.926402807E0,-2.998583913E-1
5.160703750E-1,-1.876336187E-1,2.135965586E0,5.685801618E-3
5.261343750E-1,4.327151924E-2,9.757041931E-1,3.380983770E-1
5.361983750E-1,1.962022185E-1,6.462559104E-2,5.165627003E-1
5.462613750E-1,3.035268784E-1,-3.211235106E-1,5.969140530E-1
5.563253750E-1,3.645862341E-1,-3.472800255E-1,5.795403719E-1
5.663883750E-1,3.524019420E-1,-1.862063855E-1,4.645082653E-1
5.764523750E-1,2.670231164E-1,9.177888930E-2,2.989483178E-1
5.865163750E-1,1.729902178E-1,3.345604837E-1,1.550234854E-1
5.965793750E-1,1.424685419E-1,4.265255630E-1,6.171192601E-2
6.066433750E-1,1.700512618E-1,3.136542439E-1,-6.829728372E-3
6.167063750E-1,1.998608261E-1,-1.150946412E-2,-4.017383605E-2
6.267703750E-1,2.144549191E-1,-4.327100813E-1,-4.984299839E-2
6.368333750E-1,2.345466018E-1,-7.385104299E-1,-5.401643738E-2
6.468973750E-1,2.393040657E-1,-7.642292976E-1,-7.965097576E-2
6.569613750E-1,2.025084794E-1,-4.947884977E-1,-1.321038008E-1
6.670243750E-1,8.704423904E-2,-1.054267585E-1,-1.999454200E-1
6.770883750E-1,-9.249383211E-2,2.566310465E-1,-2.577975094E-1
6.871513750E-1,-2.987817526E-1,5.010849237E-1,-2.683188617E-1
6.972153750E-1,-5.001174808E-1,5.449636579E-1,-2.129408270E-1
7.072793750E-1,-6.665744781E-1,3.829465806E-1,-1.181195825E-1
7.173423750E-1,-7.760517001E-1,1.437502652E-1,-8.566464297E-3
7.274063750E-1,-8.462873101E-1,-8.252975531E-3,7.402046770E-2
7.374693750E-1,-9.241471887E-1,-1.864584628E-3,9.589567035E-2
7.475333750E-1,-1.046945333E0,1.248106062E-1,8.741957694E-2
7.575973750E-1,-1.246242762E0,3.085591197E-1,6.607726961E-2
7.676603750E-1,-1.493113518E0,4.595482349E-1,3.268760443E-2
7.777243750E-1,-1.754410625E0,4.866099358E-1,-5.283481441E-3
7.877873750E-1,-1.991840720E0,3.147367537E-1,-6.511352956E-2
7.978513750E-1,-2.209040880E0,-2.673616074E-2,-1.387339681E-1
8.079153750E-1,-2.401986122E0,-4.789286852E-1,-2.435274422E-1
8.179783750E-1,-2.589524269E0,-9.544643164E-1,-3.916034698E-1
8.280423750E-1,-2.759480000E0,-1.366530538E0,-5.432912707E-1
8.381053750E-1,-2.900755882E0,-1.684159040E0,-6.985956430E-1
8.481693750E-1,-3.002524376E0,-1.935986042E0,-8.235749602E-1
8.582333750E-1,-3.085090637E0,-2.117754459E0,-8.800438046E-1
8.682963750E-1,-3.172622919E0,-2.192873001E0,-8.993316889E-1
8.783603750E-1,-3.153753757E0,-1.977855325E0,-8.493678570E-1
8.884233750E-1,-2.929944992E0,-1.387817383E0,-6.329907775E-1
8.984873750E-1,-2.479410172E0,-8.070013523E-1,-2.169773281E-1
9.085513750E-1,-2.183269262E0,-6.846802831E-1,3.027729094E-1
9.186143750E-1,-2.368021488E0,-7.848317027E-1,6.759539247E-1
9.286783750E-1,-2.971043110E0,-5.921572447E-1,6.753201485E-1
9.387413750E-1,-3.369199276E0,-1.249913871E-1,2.449013591E-1
9.488053750E-1,-2.981671333E0,2.404608428E-1,-3.012602627E-1
9.588693750E-1,-1.970651865E0,9.228433967E-1,-7.169096470E-1
9.689328333E-1,-1.328861237E0,1.319323301E0,-9.798520803E-1
9.789968333E-1,-1.459305167E0,1.344019413E0,-1.126283288E0
9.890598333E-1,-1.788631678E0,1.411023140E0,-1.171420932E0
9.991238333E-1,-1.904136181E0,1.085000277E0,-1.040591598E0
1.009187833E0,-2.012746334E0,2.127972543E-1,-7.716486454E-1
1.019250833E0,-2.306483984E0,-8.181409240E-1,-4.063518643E-1
1.029314833E0,-2.328670263E0,-1.461613417E0,-2.456821315E-2
1.039377833E0,-2.182424068E0,-1.831002593E0,8.928165585E-2
1.049441833E0,-2.158182144E0,-2.256548166E0,2.394484282E-1
1.059504833E0,-2.183042526E0,-2.129929543E0,5.911760926E-1
1.069568833E0,-2.236767530E0,-1.584097028E0,9.211315513E-1
1.079632833E0,-2.323272705E0,-9.225074053E-1,1.166897178E0
1.089695833E0,-2.319400072E0,-5.674044490E-1,1.283501983E0
1.099759833E0,-2.198746920E0,-4.787680805E-1,1.284681439E0
1.109822833E0,-2.104948282E0,-4.097610116E-1,1.170849204E0
1.119886833E0,-2.050817013E0,-4.065681398E-1,1.024723411E0
1.129950833E0,-1.989217281E0,-5.160991549E-1,9.165069461E-1
1.140013833E0,-1.924071789E0,-5.773843527E-1,8.648805022E-1
1.150077833E0,-1.850434542E0,-5.348704457E-1,8.531816602E-1
1.160141833E0,-1.753659725E0,-5.430133343E-1,8.559825420E-1
1.170204833E0,-1.656641364E0,-4.730244279E-1,8.598986268E-1
1.180268833E0,-1.534813643E0,-4.556233287E-1,8.696279526E-1
1.190331833E0,-1.433313847E0,-3.852322400E-1,8.658106923E-1
1.200395833E0,-1.347580552E0,-3.938289285E-1,8.279531002E-1
1.210459833E0,-1.299413085E0,-3.679452538E-1,7.489956617E-1
1.220522833E0,-1.252253771E0,-3.498485684E-1,6.350041032E-1
1.230586833E0,-1.211134791E0,-4.407562613E-1,5.565338135E-1
1.240649833E0,-1.129115820E0,-5.250831246E-1,4.983799756E-1
1.250713833E0,-1.037338376E0,-4.890105128E-1,4.600833356E-1
1.260777833E0,-9.212933183E-1,-4.959342182E-1,4.698030651E-1
1.270840833E0,-8.229972124E-1,-4.133333266E-1,4.527152777E-1
1.280904833E0,-7.131953239E-1,-3.506297171E-1,3.680232763E-1
1.290968833E0,-6.307940483E-1,-2.622113228E-1,2.532747686E-1
1.301031833E0,-5.314576030E-1,-2.494387925E-1,1.531455070E-1
1.311095833E0,-4.260970652E-1,-2.129163444E-1,8.618942648E-2
1.321158833E0,-3.134836853E-1,-1.481128484E-1,4.908067733E-2
1.331222833E0,-1.499781907E-1,-4.644238576E-2,3.649240360E-2
1.341286833E0,1.267636567E-1,2.487053722E-1,3.331685066E-2
1.351349833E0,1.878304780E-1,1.610364616E-1,-4.341308028E-2
1.361413833E0,2.039490044E-1,-1.024340559E-2,-1.648692042E-1
1.371477833E0,2.647871375E-1,-5.419882759E-2,-2.606047392E-1
1.381540833E0,3.853260577E-1,-7.798884809E-2,-2.967576683E-1
1.391604833E0,5.119013190E-1,-3.385829180E-2,-3.426095843E-1
1.401667833E0,6.461552382E-1,2.008670010E-2,-4.079313278E-1
1.411731833E0,7.795683146E-1,5.089305714E-2,-4.598417878E-1
1.421795833E0,9.035714865E-1,7.111124694E-2,-5.031886697E-1
1.431858833E0,1.023779392E0,9.500049055E-2,-5.452461243E-1
1.441922833E0,1.135591984E0,1.019500121E-1,-5.844867229E-1
1.451985833E0,1.243861675E0,1.121722981E-1,-6.029389501E-1
1.462049833E0,1.352251530E0,1.465153545E-1,-5.974943638E-1
1.472113833E0,1.447672367E0,1.945865303E-1,-5.868433118E-1
1.482176833E0,1.539403915E0,2.669800222E-1,-5.717863441E-1
1.492240833E0,1.628649354E0,3.469333053E-1,-5.549432039E-1
1.502304833E0,1.704653263E0,4.131181836E-1,-5.261661410E-1
1.512367833E0,1.783188701E0,4.987660944E-1,-4.960063398E-1
1.522431833E0,1.862812757E0,5.991017222E-1,-4.779940248E-1
1.532494833E0,1.936844945E0,7.329471111E-1,-4.867500365E-1
1.542558833E0,2.016482830E0,8.763602376E-1,-4.972098768E-1
1.552622833E0,2.091361046E0,1.000903130E0,-5.057553649E-1
1.562685833E0,2.155937195E0,1.108962178E0,-5.022323132E-1
1.572749833E0,2.214346170E0,1.196901441E0,-4.887776971E-1
1.582812833E0,2.265980721E0,1.271622300E0,-4.719185829E-1
1.592876833E0,2.293339729E0,1.299194694E0,-4.231446683E-1
1.602940833E0,2.297026873E0,1.261338949E0,-3.296988606E-1
1.613003833E0,2.236447811E0,1.148097515E0,-1.751039922E-1
1.623067833E0,2.148447514E0,1.005567789E0,-3.403236344E-2
1.633130833E0,2.071885347E0,8.429758549E-1,6.759098172E-2
1.643194833E0,2.033327103E0,6.798554063E-1,1.294410229E-1
1.653258833E0,2.095448017E0,6.201871037E-1,1.463635415E-1
1.663321833E0,2.225154877E0,6.294650435E-1,1.305816472E-1
1.673385833E0,2.360649824E0,6.496325135E-1,1.059634015E-1
1.683448833E0,2.430924654E0,6.608201861E-1,8.545253426E-2
1.693512833E0,2.448851347E0,6.373759508E-1,1.091737822E-1
1.703576833E0,2.458784103E0,6.094766855E-1,1.570161432E-1
1.713639833E0,2.481400728E0,5.770467520E-1,2.208371460E-1
1.723703833E0,2.513331175E0,5.230333209E-1,2.998704612E-1
1.733766833E0,2.542896271E0,4.336659014E-1,3.834235668E-1
1.743830833E0,2.586224556E0,3.574781716E-1,4.737132490E-1
1.753894833E0,2.617760658E0,3.143919110E-1,5.508306026E-1
1.763957833E0,2.639475346E0,2.591347694E-1,6.123229861E-1
1.774021833E0,2.648516655E0,2.005345374E-1,6.676235199E-1
1.784084833E0,2.641830444E0,1.471999437E-1,7.224010229E-1
1.794148833E0,2.624667406E0,5.396932364E-2,7.404148579E-1
1.804212833E0,2.626152515E0,-5.467912555E-2,7.496094108E-1
1.814275833E0,2.649647713E0,-1.013973057E-1,7.287554741E-1
1.824339833E0,2.685082436E0,-6.145760417E-2,6.960249543E-1
1.834403833E0,2.685483932E0,-2.001876011E-3,6.568336487E-1
1.844466833E0,2.650970221E0,3.598751500E-3,6.190833449E-1
1.854530833E0,2.581960440E0,-7.939928770E-2,5.480996966E-1
1.864593833E0,2.491031885E0,-2.648503482E-1,4.176804423E-1
1.874657833E0,2.384284496E0,-4.778883159E-1,2.274532616E-1
1.884721833E0,2.266583681E0,-6.080287099E-1,-6.748051383E-3
1.894784833E0,2.120064735E0,-6.525899768E-1,-2.334669977E-1
1.904848833E0,1.926744819E0,-6.543295383E-1,-4.203306139E-1
1.914911833E0,1.732225537E0,-6.404740214E-1,-5.725744367E-1
1.924975833E0,1.600309610E0,-5.518186688E-1,-6.585769653E-1
1.935039833E0,1.542495251E0,-4.042957723E-1,-6.504002213E-1
1.945102833E0,1.465234637E0,-2.573620081E-1,-5.778467059E-1
1.955166833E0,1.319432974E0,-1.737500429E-1,-4.695164561E-1
1.965228958E0,1.091549993E0,-1.750158519E-1,-3.451548219E-1
1.975292958E0,8.366428018E-1,-2.028324157E-1,-2.063748538E-1
1.985356958E0,6.198274493E-1,-1.500136703E-1,-7.253263146E-2
1.995419958E0,4.037517607E-1,-1.770118251E-2,4.556973651E-2
2.005483958E0,1.775090545E-1,8.440788090E-2,1.314188689E-1
2.015546958E0,-2.792152390E-2,1.128564551E-1,1.781603247E-1
2.025610958E0,-1.712653637E-1,1.338538975E-1,2.016824335E-1
2.035674958E0,-2.775080502E-1,2.370754778E-1,2.173507810E-1
2.045737958E0,-3.864926100E-1,3.678598404E-1,2.147115916E-1
2.055801958E0,-4.986571372E-1,4.426475167E-1,2.083778381E-1
2.065864958E0,-6.111011505E-1,4.271505773E-1,1.877143681E-1
2.075928958E0,-7.012611628E-1,3.415859342E-1,1.532711536E-1
2.085992958E0,-7.303377986E-1,2.139214575E-1,1.105998605E-1
2.096055958E0,-6.745927334E-1,7.373415679E-2,6.918425858E-2
2.106119958E0,-5.693563223E-1,-6.790153682E-2,-4.985843785E-3
2.116182958E0,-4.998794794E-1,-1.661264300E-1,-8.350031078E-2
2.126246958E0,-5.803612471E-1,-1.837448478E-1,-1.185435206E-1
2.136310958E0,-8.008631468E-1,-1.423922926E-1,-1.024802029E-1
2.146373958E0,-1.109551430E0,-8.668242395E-2,-2.392414585E-2
2.156437958E0,-1.393390656E0,-4.608201236E-2,8.867001534E-2
2.166500958E0,-1.586677551E0,-6.507913768E-2,2.088803202E-1
2.176564958E0,-1.709892154E0,-9.007723629E-2,3.116877079E-1
2.186628958E0,-1.803411126E0,-5.897923559E-2,3.882189691E-1
2.196691958E0,-1.901690006E0,-6.460990757E-3,4.300205112E-1
2.206755958E0,-2.043003321E0,-7.660385966E-2,4.365093112E-1
2.216818958E0,-2.274151325E0,-3.389054239E-1,3.629727960E-1
2.226882958E0,-2.711332560E0,-6.251768470E-1,2.061059326E-1
2.236946958E0,-3.214768648E0,-8.467189074E-1,-2.977534197E-3
2.247009958E0,-3.545250177E0,-7.804975510E-1,-1.863662750E-1
2.257073958E0,-3.541345596E0,-4.224666059E-1,-2.214976251E-1
2.267137958E0,-3.228650093E0,-3.251605630E-1,-5.686207861E-2
2.277200958E0,-2.752984762E0,-5.322936177E-1,2.156978548E-1
2.287264958E0,-2.416443110E0,-7.419382334E-1,4.503761232E-1
2.297327958E0,-2.558366537E0,-7.149737477E-1,5.151156783E-1
2.307391958E0,-3.029604197E0,-2.901916206E-1,4.817177355E-1
2.317455958E0,-3.383606672E0,5.228915215E-1,2.158923149E-1
2.327518958E0,-3.405757904E0,8.922175765E-1,-2.947552502E-1
2.337582958E0,-2.894260168E0,1.042756557E0,-6.999927759E-1
2.347645958E0,-2.109378338E0,1.629796863E0,-8.444791436E-1
2.357709958E0,-1.720662951E0,1.947136521E0,-8.101381660E-1
2.367773958E0,-2.081293106E0,1.532716155E0,-6.714146733E-1
2.377836958E0,-2.671646595E0,9.515878558E-1,-5.335345864E-1
2.387900958E0,-2.848588228E0,7.253946662E-1,-4.954273999E-1
2.397963958E0,-2.600482464E0,2.409775406E-1,-4.737700224E-1
2.408027958E0,-2.543114901E0,-5.419590473E-1,-3.119528890E-1
2.418091958E0,-2.757727861E0,-7.730996609E-1,-6.001474336E-2
2.428154958E0,-2.849555969E0,-6.866230965E-1,3.553470373E-1
2.438218958E0,-2.764966726E0,-9.858341813E-1,7.398395538E-1
2.448281958E0,-2.694348335E0,-1.357205033E0,9.492936730E-1
2.458345958E0,-2.724267721E0,-1.116809845E0,1.111384153E0
2.468409958E0,-2.781821728E0,-6.552433372E-1,1.209557295E0
2.478472958E0,-2.847759962E0,-4.330992103E-1,1.294336915E0
2.488536958E0,-2.803147793E0,-4.312291145E-1,1.342699409E0
2.498599958E0,-2.687063932E0,-4.486321211E-1,1.340973139E0
2.508663958E0,-2.654044390E0,-4.121121764E-1,1.277638674E0
2.518727958E0,-2.614632845E0,-5.943729877E-1,1.207892060E0
2.528790958E0,-2.490392447E0,-8.761322498E-1,1.099513888E0
2.538854958E0,-2.280514240E0,-8.263143301E-1,1.028452992E0
2.548918958E0,-2.143944025E0,-6.171970963E-1,9.849665165E-1
2.558981958E0,-2.026968479E0,-5.519335270E-1,9.580092430E-1
2.569045958E0,-1.888607979E0,-4.831217229E-1,8.779729605E-1
2.579108958E0,-1.768490076E0,-4.861047864E-1,7.519367933E-1
2.589172958E0,-1.638407946E0,-5.625675917E-1,6.106625199E-1
2.599236958E0,-1.487624288E0,-5.404764414E-1,4.884438515E-1
2.609299958E0,-1.404017806E0,-5.317335725E-1,4.370107651E-1
2.619363958E0,-1.328024745E0,-5.653442740E-1,4.377948940E-1
2.629427958E0,-1.205925703E0,-5.370772481E-1,4.164842665E-1
2.639490958E0,-1.055732250E0,-5.130134225E-1,3.917653561E-1
2.649554958E0,-9.101317525E-1,-3.837278783E-1,3.627557158E-1
2.659617958E0,-8.121368885E-1,-3.259061873E-1,3.110582232E-1
2.669681958E0,-7.084797621E-1,-3.389391899E-1,2.619745731E-1
2.679745958E0,-6.016998291E-1,-2.422669828E-1,2.454413474E-1
2.689808958E0,-4.619233012E-1,-1.568375677E-1,2.414937466E-1
2.699872958E0,-3.178846836E-1,-1.394386441E-1,2.316978276E-1
2.709936958E0,-1.796075106E-1,-1.428035498E-1,1.927860975E-1
2.719999958E0,-4.637231305E-2,-1.509377658E-1,1.053634435E-1
2.730063958E0,7.383585721E-2,-1.503931433E-1,-3.786478192E-3
2.740127958E0,1.998817921E-1,-1.541306078E-1,-1.019379273E-1
2.750190958E0,3.541054428E-1,-1.713950932E-1,-1.844919324E-1
2.760254958E0,5.195513964E-1,-1.557677835E-1,-2.728369832E-1
2.770317958E0,6.752957106E-1,-1.035967171E-1,-3.871188164E-1
2.780381958E0,8.381352425E-1,-6.164138764E-2,-5.300511122E-1
2.790445958E0,1.009554982E0,-6.543612480E-2,-6.545757651E-1
2.800508958E0,1.184924483E0,-8.071004599E-2,-7.539514303E-1
2.810572958E0,1.384887218E0,-7.045181841E-2,-8.254961371E-1
2.820636958E0,1.560463548E0,-5.714799836E-2,-8.801386356E-1
2.830699958E0,1.732478142E0,-5.776704475E-2,-9.115464091E-1
2.840763958E0,1.888186932E0,-3.707103431E-2,-9.301722646E-1
2.850826958E0,2.034879684E0,-1.319206506E-2,-9.437943101E-1
2.860890958E0,2.180504799E0,2.303594351E-2,-9.609778523E-1
2.870954958E0,2.324630022E0,1.105591357E-1,-9.892307520E-1
2.881017958E0,2.470171452E0,2.215436399E-1,-1.011105180E0
2.891081958E0,2.576682329E0,3.485838771E-1,-1.023360491E0
2.901145958E0,2.665958643E0,4.634653330E-1,-1.043534994E0
2.911208958E0,2.747703314E0,5.809407830E-1,-1.061055183E0
2.921272958E0,2.804744244E0,6.821379066E-1,-1.061559796E0
2.931335958E0,2.839878798E0,7.553418279E-1,-1.062644482E0
2.941399958E0,2.871507883E0,8.170557618E-1,-1.075017571E0
2.951463958E0,2.908878565E0,8.513718843E-1,-1.081919909E0
2.961526958E0,2.924784660E0,8.321655989E-1,-1.042012453E0
2.971588250E0,2.893404007E0,8.314771652E-1,-9.441325665E-1
2.981651250E0,2.835200548E0,8.020639420E-1,-7.763518095E-1
2.991715250E0,2.760920286E0,7.296629548E-1,-5.869304538E-1
3.001779250E0,2.721916437E0,6.554946899E-1,-4.297670126E-1
3.011842250E0,2.724270344E0,6.397620440E-1,-2.916072607E-1
3.021906250E0,2.748653173E0,6.442640424E-1,-2.013759017E-1
3.031969250E0,2.805277109E0,6.432874799E-1,-1.183473319E-1
3.042033250E0,2.924122334E0,6.790805459E-1,-2.892386168E-2
3.052097250E0,3.126329184E0,8.307129145E-1,8.187508583E-2
3.062160250E0,3.319555283E0,1.010784507E0,2.109033018E-1
3.072224250E0,3.405313730E0,1.088961959E0,3.317186534E-1
3.082288250E0,3.378080845E0,1.023627400E0,4.540613592E-1
3.092351250E0,3.303521395E0,8.954571486E-1,5.894199610E-1
3.102415250E0,3.224475861E0,7.628045678E-1,6.971702576E-1
3.112478250E0,3.144786596E0,6.137357354E-1,7.629825473E-1
3.122542250E0,3.076392412E0,4.936464727E-1,7.924766541E-1
3.132606250E0,3.019668579E0,3.952325881E-1,7.821784616E-1
3.142669250E0,2.982885122E0,2.855190039E-1,7.478461266E-1
3.152733250E0,2.939953089E0,1.664328128E-1,7.043183446E-1
3.162796250E0,2.863964319E0,5.525429174E-2,6.333267689E-1
3.172860250E0,2.782127380E0,-6.221827865E-2,5.070076585E-1
3.182924250E0,2.710796356E0,-2.283652127E-1,3.510477841E-1
3.192987250E0,2.594300032E0,-4.169787765E-1,1.499141753E-1
3.203051250E0,2.415451050E0,-6.818053126E-1,-6.936781108E-2
3.213114250E0,2.203963518E0,-9.846594930E-1,-2.677440047E-1
3.223178250E0,2.031151772E0,-1.154964805E0,-4.438966215E-1
3.233242250E0,1.916079283E0,-1.137679338E0,-5.811703205E-1
3.243305250E0,1.886863708E0,-9.955205321E-1,-6.974895000E-1
3.253369250E0,1.894991159E0,-8.009098172E-1,-7.679695487E-1
3.263432250E0,1.847181678E0,-6.235091686E-1,-7.695266008E-1
3.273496250E0,1.703070879E0,-4.804792702E-1,-6.724109650E-1
3.283560250E0,1.485757709E0,-3.921588659E-1,-4.852986336E-1
3.293623250E0,1.196408749E0,-3.260176778E-1,-2.678576708E-1
3.303687250E0,8.725351095E-1,-2.931395173E-1,-6.312217563E-2
3.313751250E0,5.618888736E-1,-2.331334203E-1,1.236410514E-1
3.323814250E0,2.959196866E-1,-1.421169341E-1,2.733846009E-1
3.333878250E0,7.916848361E-2,-8.692479134E-2,3.803994656E-1
3.343941250E0,-7.621325552E-2,-1.084357351E-1,4.078051746E-1
